,管理No,PQ,index_in_管理No,delta,theta,alpha1,alpha2,beta1,beta2,gamma1,gamma2,emg
0,FTD120010,0,1,73.17543972139279,24.309297111127098,10.597086219521547,6.9336452089135205,24.699734867269903,52.69095067698197,25.652540543092563,9.247859052900678,3.1173594287024167
1,FTD120010,0,2,81.68600270873266,28.115077943665195,18.184694270267155,14.300511677135955,20.00555940705741,36.06107068078991,28.151258734406586,12.134313514526564,3.862347523973608
2,FTD120010,0,3,60.910657291339135,17.651117048156024,17.753158625815125,16.19497425225566,17.4917370168347,55.37317616405039,33.895792105945574,10.956100682229215,1.93612228910035
3,FTD120010,0,4,70.537528617219,25.349475607524955,14.005461682164603,5.263043051538608,20.713630201902077,43.191726425575894,23.0435263182678,12.620574369549344,3.14975495344285
4,FTD120010,0,5,19.395490911020048,21.67031582657508,15.257166592227566,10.738252370030743,18.894290703859095,39.123942774176506,18.180814519458828,9.863062888588267,2.813023489575379
5,FTD120010,0,6,71.53979639274195,24.227294057018113,10.184434938492513,6.7755528781025,16.577736778975275,43.31168654599663,30.243544480623143,9.02135252932947,3.927361794243536
6,FTD120010,0,7,19.22367296611416,13.152439506784393,12.989707159386388,7.49883718194518,12.255098166373864,35.75370292706136,27.217459375523198,13.57084181689017,1.604088252462741
7,FTD120010,0,8,22.54362233109591,10.33884530730872,7.1028131509464245,2.2966415129058744,8.364149774293553,46.833834492909915,24.882820561164248,13.480635698448348,2.656549476265229
8,FTD120010,0,9,68.15503378394754,24.716396320317966,9.08973277069655,6.655834878922111,13.441729211489879,48.51971862835462,38.63367704800082,8.255075740275458,3.306425864016426
9,FTD120010,0,10,30.807801201822926,10.78140050169521,11.117168966495619,6.237351600486665,13.128403347377922,34.01552521065918,25.20107664336524,6.876072152950482,1.321058464027947
10,FTD120010,0,11,14.859713870540602,14.788069069505893,9.217714902527053,3.911350326523462,19.298004835404157,39.06863898779448,36.45861432355733,9.223056242597972,1.8567906509952639
11,FTD120010,0,12,28.527675331245153,29.641907984834464,12.006803377749161,17.637642886944406,20.60203075513659,44.88792820167073,25.2634103793631,13.299021370321277,1.261781150384556
12,FTD120010,0,13,8.28284254614516,17.442957970650806,17.298314185354243,7.664096036437273,29.601806414900544,45.24667498089003,27.391958166952577,8.840921998086685,1.7152593603528064
13,FTD120010,0,14,12.749704502196519,20.851121506126482,22.456679965662534,14.319077067980588,24.289262012774778,44.327713280333455,31.1635609772627,12.0425854579427,3.323242659580728
14,FTD120010,0,15,16.64543041327696,19.772779803476126,16.6527775235499,13.680973465261662,9.151700429476026,52.17290722469856,36.80476713305071,15.095727263954473,4.21857882423694
15,FTD120010,0,16,15.919758037968148,22.288214248297233,15.88257668840193,9.829232862220596,17.88982242727113,46.41494678761787,27.341654064491046,16.45983777284956,2.423505712440699
16,FTD120010,0,17,24.804412966094382,21.85922419337546,15.353705793914298,17.459428087028254,15.824189951714134,47.49636813897088,30.818947106499017,11.258256938287824,1.9644119223136476
17,FTD120010,0,18,36.41815430679907,36.94653648328358,15.294023976643388,11.25491688174412,13.774646822110508,48.95583390273075,35.278250915119344,9.227911511871302,3.4673911090091005
18,FTD120010,0,19,12.338526901074575,20.38850570153386,25.07781900646883,5.432600633250174,22.11794325020812,46.797624033328496,24.791824386882443,6.481152609126898,1.1940304545232183
19,FTD120010,0,20,27.088793904158035,18.68417407075976,17.429985503748917,9.216261799001876,11.481037405369081,41.223584739370224,35.170602474096114,10.614288498865644,1.4179383941116765
20,FTD120010,0,21,26.51472477963665,29.545746723440466,14.541478315501271,17.3336685526165,26.127896930392932,46.09048123061836,28.340628282984238,14.275057657061254,2.950839413683588
21,FTD120010,0,22,26.40674741479476,25.56909194088587,12.669253562818724,10.927232466734333,9.671379351527593,38.9995556981405,32.93517860932868,12.466351837010757,5.317077400594095
22,FTD120010,0,23,35.81738391452788,13.806266517696939,21.422472879269698,5.761459640978144,16.68879208038586,48.88488841663061,26.010932123302542,10.043664014556938,2.8270113015810714
23,FTD120010,0,24,19.53191289775103,20.610908222082003,27.14037495349357,4.936426972058891,19.70267477422362,33.233815473345736,29.932248155728896,8.445909474037046,0.7317120920314916
24,FTD120010,0,25,78.17950985438611,25.151452513391927,17.0884791732094,10.072009050203803,21.93257252433193,47.5389340554083,22.45159099742577,8.472339556697113,2.6439288111548334
25,FTD120010,0,26,15.989410299161715,21.753928754101292,13.170791019632318,9.500973461685115,15.026027789234535,45.272161809329404,22.535459280182337,11.1748072846182,1.3366455901787808
26,FTD120010,0,27,42.87261217198091,26.596590257214444,13.028298937726012,7.779960630385014,14.927489563333609,46.10237739493982,28.121953064172306,10.515305255465973,4.547055517925369
27,FTD120010,0,28,59.87736333076107,29.992856241211168,15.847085539250369,6.5807391135127595,15.906744056454244,48.202747005515185,37.301431935158334,9.945254917237051,1.5570611817226911
28,FTD120010,0,29,95.07426807787132,27.990204008312162,21.404475989018216,12.07793850727947,17.917519607215443,57.04708407835793,33.50582380214868,17.41691969175192,6.722441326490227
29,FTD120010,0,30,45.59349717646518,38.64368795974621,11.911082417109647,14.555615453005963,21.542075731590725,47.73034948637445,34.54959250893062,10.389297831329316,7.222032782735204
30,FTD120010,0,31,12.432044669058108,17.69398397136376,8.569678984209956,10.861183472297924,16.094855256174498,54.65449263357083,30.295601496550383,13.65287063560222,2.273442478796153
31,FTD120010,0,32,52.38892246695133,22.765478476181848,12.472532964405138,8.931066272265483,19.637047596608294,54.86952083953044,56.378865530335986,17.509992972134658,3.138302369233329
32,FTD120010,0,33,117.6550923783443,22.67498992596504,10.845008942068812,5.331807322518884,28.00603895402467,68.66184926533758,43.109810560160554,17.771454937664647,5.3109371283253335
33,FTD120010,26,34,14.123334057743751,20.050495715949516,8.78179037171872,8.596044039804369,15.055195986925833,45.127858790576035,29.575879612069073,11.403258168522136,2.601969060839691
34,FTD120010,0,35,45.36822082729799,19.713504377693454,13.453346530199601,10.504444502881878,19.7257512332468,39.51468822971426,33.68390712624657,12.748378386004095,4.3724204901060215
35,FTD120010,0,36,62.66151360146173,30.65764099811021,11.695449991228786,10.522843304050665,15.948980435893198,61.458692668154704,38.558934725655845,17.845176199373057,4.8776720930892425
36,FTD120010,0,37,46.23655225496184,23.7726669598399,9.727403563969094,6.747692422597605,14.19467126928298,59.43053572447809,65.49221623967877,21.885820010273996,6.134180329785657
37,FTD120010,0,38,54.289650934266135,29.165397748534623,8.685593957904917,8.460484514158383,24.3669579686011,56.61481264171575,35.371671757433994,14.950557540392257,6.200612146623118
38,FTD120010,0,39,31.92690122176215,12.870427073461663,8.022803220541414,5.233098084772214,15.06317320587784,50.114010311078026,31.622055175524324,13.971944845818259,3.270216411757809
39,FTD120010,0,40,15.54251593046596,19.284608577078846,5.636852387071476,7.493660855278776,15.070260979120551,43.95759611750531,31.314939498053644,12.843942787410038,2.967303657597327
40,FTD120010,0,41,56.1741259963507,18.48626358231204,8.790639382773087,4.969162902103734,9.885290396677458,39.721764267742294,39.96577136410065,12.494257027575616,3.4417458346619956
41,FTD120010,0,42,61.19451751633409,33.924140518967974,7.267325225942871,7.368313029162158,26.110925590478914,60.821095100576215,40.81784672338706,19.591903506923188,1.8757996961017698
42,FTD120010,0,43,48.44473461622412,28.56302507043238,8.685992628065254,7.037016978143553,14.401379507771718,80.28085345826156,56.89951965099261,25.076847068053027,3.818964728483754
43,FTD120010,0,44,37.77165711041482,25.599861959503247,9.18363988340116,6.020865735164369,16.160665480292106,58.917539523404045,36.011190138616854,9.028069020253847,3.109909593598931
44,FTD120010,0,45,37.5587683086594,17.877188927142058,14.12270702118196,7.569829598480029,13.511718377652247,48.94532436737134,23.26579692929201,12.059302207480194,2.791385018067377
45,FTD120010,0,46,83.86343564778562,38.47479412917866,14.81110828944456,4.36998469864694,15.089059522683062,44.25660068351887,25.056818284767772,10.499176852161254,2.8326970251584673
46,FTD120010,0,47,73.89476931058331,24.95073807316102,6.651222756490111,11.99747859258034,16.151826559217316,43.17113026117575,33.7160255084807,10.349568922270048,3.9014534026892265
47,FTD120010,0,48,71.39483254674666,30.194486316543475,15.200133473312713,8.776704537913156,15.680048110396436,42.991244978290105,31.769171599613742,8.57632443144941,4.254165382177266
48,FTD120011,0,1,71.45209310328252,30.854768175672792,19.365938801280432,6.098550409600945,17.946044462139536,69.70211214978629,20.30875256721813,16.459119655615076,6.851459891088977
49,FTD120011,0,2,96.72541797218912,34.042373017298566,17.07269034277781,8.325905887069426,17.439980244390973,55.838171358498734,30.97271273024097,11.780591423734943,5.384013242605852
50,FTD120011,0,3,22.17339391684067,21.062971307294994,20.84385401331455,5.243154517662384,15.598097136875394,39.79018162087785,27.88460943882774,12.513678501264508,1.9582087844470746
51,FTD120011,0,4,41.44035739876717,22.598236769838554,19.395208167281716,9.53261676525685,14.001530210347315,36.86080906533417,28.43302251963386,7.104371447782649,2.8331182723062747
52,FTD120011,0,5,99.37332453882412,52.19637903833361,26.647574982666253,8.478197892859505,14.943903837773803,42.01911057670582,24.225351769121133,6.877394192512061,1.4766899249394168
53,FTD120011,0,6,24.39712434793089,31.564732328871205,15.298448199393093,10.544433020262419,24.53467558553483,42.54682057188779,19.77530020725717,7.472602108410815,4.22415023018072
54,FTD120011,0,7,34.009630874429384,26.51669327268321,15.240143189596923,5.645333479602918,16.119332379018957,51.675315510192746,19.5246800592097,11.30760834204152,2.4937159773145554
55,FTD120011,0,8,50.98684477848087,22.91408101082825,17.9529521829784,9.185220703665816,14.803414381187153,43.075977236401506,21.700988042313984,6.641371081352116,3.8151159191862916
56,FTD120011,0,9,29.73229094098925,16.81068878055525,13.355470271799476,11.37648940087254,11.672066297721674,42.95945352316741,24.278847233181757,10.893320521380803,3.210926425026131
57,FTD120011,0,10,18.928348292151945,19.74708838551524,11.805923834122705,9.269067132842983,21.800337431833427,42.68024944676676,29.605640554491337,7.216410321163862,1.3649351039845876
58,FTD120011,0,11,12.394433936399388,11.995663681325144,4.833248537541803,12.918047499402437,11.774151125831857,36.918150126857874,23.453417608649296,8.21622864865366,1.4219318452547436
59,FTD120011,0,12,39.36085411369155,14.766661205391516,9.928088298721931,9.838038054710475,19.717103456070117,39.789511883933976,33.416919050888865,9.347806319932145,0.8416565557471423
60,FTD120011,0,13,16.889878075425614,19.250401359660135,18.885718859340468,10.87708322950724,16.42422909699318,55.13105893580568,22.976274205550197,8.325547362592772,0.5468254956092063
61,FTD120011,0,14,17.862703688254612,19.91895529002311,12.309739775873975,8.959473411346728,9.724024002855819,37.528360057915016,19.310370377325278,11.07682478753383,1.0062696131871491
62,FTD120011,0,15,15.608139797041002,11.947584111048446,14.205530032216313,10.292620701100592,25.821465473397268,47.37205046993959,31.29261137539345,5.447235750411434,1.0263849405333765
63,FTD120011,0,16,15.3136042984376,14.988159074460276,12.801964409961812,12.575292467686724,20.690724521702897,47.729257248223725,28.919930803438064,10.190741110439522,1.9578544809919407
64,FTD120011,0,17,36.01725221904141,17.942181519919668,16.60234386678047,10.325152352530523,11.551868408383129,28.124248067631218,29.226567085136963,13.180423735095458,3.0781960044722663
65,FTD120011,0,18,16.12930528379598,22.612369666393537,16.203600463786636,10.268474810316015,12.968389913746384,41.35018414192789,21.065877580647204,11.742957998573289,2.8477132595778936
66,FTD120011,0,19,12.409331405934962,11.390957309955724,15.322196351206617,7.853055286409848,14.177908260112462,42.681706654421546,25.839478866629033,12.117537090425555,2.058141421189615
67,FTD120011,0,20,49.300743178203184,16.926048551530883,11.520620461855154,11.111306328282023,11.82198883679853,41.507897012108565,17.26714629620617,9.563133188125349,2.7798814075083107
68,FTD120011,0,21,94.27067385045174,29.33153920519287,25.72935397647202,10.511334751088423,21.036336751030113,34.57861668090975,24.073586055785416,11.311207447162388,5.597764652324817
69,FTD120011,0,22,65.33167458647071,30.79357337233005,17.121661761403793,8.408408584268017,12.477604963229721,43.00598572331865,26.796363899279914,8.845819906956384,4.279523436673798
70,FTD120011,0,23,26.561549199006095,14.782296490798561,8.463542583702743,5.219324165745405,9.864276471853524,42.598779430162935,22.095652193417777,9.907681208489429,1.8418652546385408
71,FTD120011,0,24,59.33576332359746,22.185037556897132,17.104605898107597,12.943901011841518,11.369062633257414,51.09735865304003,27.92029687128874,5.97061180600485,1.1537316714959494
72,FTD120011,0,25,49.455188900281755,20.55035531063328,13.58155249064696,13.20876246682797,11.225518277104452,38.159383449928086,22.63406681355628,7.100722671598822,1.6244325109473317
73,FTD120011,0,26,80.6478330980807,28.98201290312526,7.461779052846694,6.7084096280768675,9.894139813647934,40.27637221399767,26.308941586126874,12.788262507870899,3.511767766641056
74,FTD120011,0,27,86.94296901227703,33.34470670846698,10.403359253899076,7.829044228752648,15.45191216523358,34.310536097092545,20.650921462997534,7.5457197848667885,4.119203655643825
75,FTD120011,0,28,58.00231018749247,26.206422010986156,16.743704949676566,8.593840025886927,21.594286311931295,46.74733796585824,22.872653677240855,10.560411364943748,2.9944651186134745
76,FTD120011,0,29,14.748267980076632,17.577297597522236,12.941735860954296,5.46653166972087,19.23788222333138,39.681992137868896,27.239432740184476,8.961213393161394,2.4926100294438416
77,FTD120011,0,30,25.01772665225402,26.020622231474015,11.347464206348194,8.572974456053462,14.148796271871507,33.41063416319242,25.018596080821496,7.709085550565109,2.6001508388503565
78,FTD120011,0,31,15.562521836164715,12.198988528066607,12.521409264312181,8.843932980583489,15.767985184899395,33.799683807417246,27.351646610427046,7.002480381698113,1.538439217336004
79,FTD120011,0,32,88.32592190107977,27.496255327277453,14.246498209730756,10.625825988128419,18.223409066022356,74.84169917219911,51.77402683134973,13.448998793822366,2.162675453000355
80,FTD120011,0,33,39.18740640950905,17.818415937378063,10.562468346729531,6.760678755110995,19.64460718565375,50.7730597154099,32.20878773622813,17.654920669604536,2.633388936429229
81,FTD120011,0,34,70.15040558481327,20.10019363421652,17.57334995648701,8.779289925309419,23.104451553481404,35.69224486824662,23.269786956874817,10.359849724831902,3.5088579974314067
82,FTD120011,0,35,74.8639414520415,37.116401994753886,12.30594537353448,7.094857100929283,16.232730975396706,32.59705620506872,30.258798972277155,10.510840821158505,3.9536317852921115
83,FTD120011,0,36,34.87818970985881,23.63480204817404,9.9926945753629,6.923150849696979,12.07046187283024,34.41903083685939,22.308537227666854,6.981555115327366,2.4590381999461717
84,FTD120011,0,37,52.89904224039282,17.696432654362354,9.001087788979554,16.215208148203814,14.823736525458653,77.38213348280605,49.917633555617726,31.474927856863765,3.4146034538519476
85,FTD120011,0,38,69.05538036935634,35.799970043310616,15.65927177231768,6.218262392187908,21.698231858368096,60.879127592547924,78.61100475512742,29.75385506374481,4.006824654845389
86,FTD120011,0,39,48.375971079877054,35.101018598290274,9.32344918085159,8.318060719049287,13.458224650765509,47.32451109507535,39.857850941067426,12.544634892398664,3.848379813813172
87,FTD120011,0,40,37.63374393939095,24.54272148245808,3.930312582277659,6.462930725706437,14.387101105307519,47.82018576444952,38.8879027363968,11.608388534128082,0.9270153545665113
88,FTD120011,0,41,61.59552659970986,30.454735903972807,5.2922918287975005,9.36333325809095,18.751221074343395,81.64975269732332,53.91721414966072,26.47465762788918,3.5967103369496614
89,FTD120011,0,42,72.05900645579483,34.41563125668149,24.648532564162046,12.869129642893576,30.041332355014582,64.11903276346163,94.26597299391906,23.25841677689608,5.333913396768607
90,FTD120011,0,43,68.68402766556174,27.519285997705513,18.658244078826186,6.117560295183821,20.783253905253826,101.32577228127141,79.41065044821877,37.61458263959487,4.981967559535632
91,FTD120011,0,44,57.98467329808085,17.559449155392137,11.945030874094723,9.288953302812686,10.664895621722733,37.75668285460985,35.80760801273445,10.72594535748992,2.050730221254319
92,FTD120011,0,45,51.878205399229955,14.085039257382766,21.314788425832273,4.041320327867794,13.805505453689051,40.08547304007405,28.130611373059956,10.706999473760252,2.341543168021062
93,FTD120011,0,46,61.608940242090384,23.448886074160832,15.824957725669087,6.9746687367017355,20.69210283352613,43.36290508884998,42.60453032366279,18.49091678924944,2.4370509217305485
94,FTD120011,0,47,78.84834209495074,24.85077544904638,16.517409295579196,12.258530322945385,14.859489894186616,52.315734976493424,37.48813775601273,9.190290894284129,2.917250630707999
95,FTD120011,0,48,40.85021509580511,30.833485643730445,23.98113042135791,5.6084733560187185,11.152144402332379,33.85488692673917,26.73473628586421,6.193883875673464,2.044152977292329
96,FTD120012,0,1,71.45209310328252,30.854768175672792,19.365938801280432,6.098550409600945,17.946044462139536,69.70211214978629,20.30875256721813,16.459119655615076,6.851459891088977
97,FTD120012,0,2,96.72541797218912,34.042373017298566,17.07269034277781,8.325905887069426,17.439980244390973,55.838171358498734,30.97271273024097,11.780591423734943,5.384013242605852
98,FTD120012,0,3,22.17339391684067,21.062971307294994,20.84385401331455,5.243154517662384,15.598097136875394,39.79018162087785,27.88460943882774,12.513678501264508,1.9582087844470746
99,FTD120012,0,4,41.44035739876717,22.598236769838554,19.395208167281716,9.53261676525685,14.001530210347315,36.86080906533417,28.43302251963386,7.104371447782649,2.8331182723062747
100,FTD120012,0,5,99.37332453882412,52.19637903833361,26.647574982666253,8.478197892859505,14.943903837773803,42.01911057670582,24.225351769121133,6.877394192512061,1.4766899249394168
101,FTD120012,0,6,24.39712434793089,31.564732328871205,15.298448199393093,10.544433020262419,24.53467558553483,42.54682057188779,19.77530020725717,7.472602108410815,4.22415023018072
102,FTD120012,0,7,34.009630874429384,26.51669327268321,15.240143189596923,5.645333479602918,16.119332379018957,51.675315510192746,19.5246800592097,11.30760834204152,2.4937159773145554
103,FTD120012,0,8,50.98684477848087,22.91408101082825,17.9529521829784,9.185220703665816,14.803414381187153,43.075977236401506,21.700988042313984,6.641371081352116,3.8151159191862916
104,FTD120012,0,9,29.73229094098925,16.81068878055525,13.355470271799476,11.37648940087254,11.672066297721674,42.95945352316741,24.278847233181757,10.893320521380803,3.210926425026131
105,FTD120012,0,10,18.928348292151945,19.74708838551524,11.805923834122705,9.269067132842983,21.800337431833427,42.68024944676676,29.605640554491337,7.216410321163862,1.3649351039845876
106,FTD120012,0,11,12.394433936399388,11.995663681325144,4.833248537541803,12.918047499402437,11.774151125831857,36.918150126857874,23.453417608649296,8.21622864865366,1.4219318452547436
107,FTD120012,0,12,39.36085411369155,14.766661205391516,9.928088298721931,9.838038054710475,19.717103456070117,39.789511883933976,33.416919050888865,9.347806319932145,0.8416565557471423
108,FTD120012,0,13,16.889878075425614,19.250401359660135,18.885718859340468,10.87708322950724,16.42422909699318,55.13105893580568,22.976274205550197,8.325547362592772,0.5468254956092063
109,FTD120012,0,14,17.862703688254612,19.91895529002311,12.309739775873975,8.959473411346728,9.724024002855819,37.528360057915016,19.310370377325278,11.07682478753383,1.0062696131871491
110,FTD120012,0,15,15.608139797041002,11.947584111048446,14.205530032216313,10.292620701100592,25.821465473397268,47.37205046993959,31.29261137539345,5.447235750411434,1.0263849405333765
111,FTD120012,0,16,15.3136042984376,14.988159074460276,12.801964409961812,12.575292467686724,20.690724521702897,47.729257248223725,28.919930803438064,10.190741110439522,1.9578544809919407
112,FTD120012,0,17,36.01725221904141,17.942181519919668,16.60234386678047,10.325152352530523,11.551868408383129,28.124248067631218,29.226567085136963,13.180423735095458,3.0781960044722663
113,FTD120012,0,18,16.12930528379598,22.612369666393537,16.203600463786636,10.268474810316015,12.968389913746384,41.35018414192789,21.065877580647204,11.742957998573289,2.8477132595778936
114,FTD120012,0,19,12.409331405934962,11.390957309955724,15.322196351206617,7.853055286409848,14.177908260112462,42.681706654421546,25.839478866629033,12.117537090425555,2.058141421189615
115,FTD120012,0,20,49.300743178203184,16.926048551530883,11.520620461855154,11.111306328282023,11.82198883679853,41.507897012108565,17.26714629620617,9.563133188125349,2.7798814075083107
116,FTD120012,0,21,94.27067385045174,29.33153920519287,25.72935397647202,10.511334751088423,21.036336751030113,34.57861668090975,24.073586055785416,11.311207447162388,5.597764652324817
117,FTD120012,0,22,65.33167458647071,30.79357337233005,17.121661761403793,8.408408584268017,12.477604963229721,43.00598572331865,26.796363899279914,8.845819906956384,4.279523436673798
118,FTD120012,0,23,26.561549199006095,14.782296490798561,8.463542583702743,5.219324165745405,9.864276471853524,42.598779430162935,22.095652193417777,9.907681208489429,1.8418652546385408
119,FTD120012,0,24,59.33576332359746,22.185037556897132,17.104605898107597,12.943901011841518,11.369062633257414,51.09735865304003,27.92029687128874,5.97061180600485,1.1537316714959494
120,FTD120012,0,25,49.455188900281755,20.55035531063328,13.58155249064696,13.20876246682797,11.225518277104452,38.159383449928086,22.63406681355628,7.100722671598822,1.6244325109473317
121,FTD120012,0,26,80.6478330980807,28.98201290312526,7.461779052846694,6.7084096280768675,9.894139813647934,40.27637221399767,26.308941586126874,12.788262507870899,3.511767766641056
122,FTD120012,0,27,86.94296901227703,33.34470670846698,10.403359253899076,7.829044228752648,15.45191216523358,34.310536097092545,20.650921462997534,7.5457197848667885,4.119203655643825
123,FTD120012,0,28,58.00231018749247,26.206422010986156,16.743704949676566,8.593840025886927,21.594286311931295,46.74733796585824,22.872653677240855,10.560411364943748,2.9944651186134745
124,FTD120012,0,29,14.748267980076632,17.577297597522236,12.941735860954296,5.46653166972087,19.23788222333138,39.681992137868896,27.239432740184476,8.961213393161394,2.4926100294438416
125,FTD120012,0,30,25.01772665225402,26.020622231474015,11.347464206348194,8.572974456053462,14.148796271871507,33.41063416319242,25.018596080821496,7.709085550565109,2.6001508388503565
126,FTD120012,0,31,15.562521836164715,12.198988528066607,12.521409264312181,8.843932980583489,15.767985184899395,33.799683807417246,27.351646610427046,7.002480381698113,1.538439217336004
127,FTD120012,0,32,88.32592190107977,27.496255327277453,14.246498209730756,10.625825988128419,18.223409066022356,74.84169917219911,51.77402683134973,13.448998793822366,2.162675453000355
128,FTD120012,0,33,39.18740640950905,17.818415937378063,10.562468346729531,6.760678755110995,19.64460718565375,50.7730597154099,32.20878773622813,17.654920669604536,2.633388936429229
129,FTD120012,0,34,70.15040558481327,20.10019363421652,17.57334995648701,8.779289925309419,23.104451553481404,35.69224486824662,23.269786956874817,10.359849724831902,3.5088579974314067
130,FTD120012,0,35,74.8639414520415,37.116401994753886,12.30594537353448,7.094857100929283,16.232730975396706,32.59705620506872,30.258798972277155,10.510840821158505,3.9536317852921115
131,FTD120012,0,36,34.87818970985881,23.63480204817404,9.9926945753629,6.923150849696979,12.07046187283024,34.41903083685939,22.308537227666854,6.981555115327366,2.4590381999461717
132,FTD120012,0,37,52.89904224039282,17.696432654362354,9.001087788979554,16.215208148203814,14.823736525458653,77.38213348280605,49.917633555617726,31.474927856863765,3.4146034538519476
133,FTD120012,0,38,69.05538036935634,35.799970043310616,15.65927177231768,6.218262392187908,21.698231858368096,60.879127592547924,78.61100475512742,29.75385506374481,4.006824654845389
134,FTD120012,0,39,48.375971079877054,35.101018598290274,9.32344918085159,8.318060719049287,13.458224650765509,47.32451109507535,39.857850941067426,12.544634892398664,3.848379813813172
135,FTD120012,0,40,37.63374393939095,24.54272148245808,3.930312582277659,6.462930725706437,14.387101105307519,47.82018576444952,38.8879027363968,11.608388534128082,0.9270153545665113
136,FTD120012,0,41,61.59552659970986,30.454735903972807,5.2922918287975005,9.36333325809095,18.751221074343395,81.64975269732332,53.91721414966072,26.47465762788918,3.5967103369496614
137,FTD120012,0,42,72.05900645579483,34.41563125668149,24.648532564162046,12.869129642893576,30.041332355014582,64.11903276346163,94.26597299391906,23.25841677689608,5.333913396768607
138,FTD120012,0,43,68.68402766556174,27.519285997705513,18.658244078826186,6.117560295183821,20.783253905253826,101.32577228127141,79.41065044821877,37.61458263959487,4.981967559535632
139,FTD120012,0,44,57.98467329808085,17.559449155392137,11.945030874094723,9.288953302812686,10.664895621722733,37.75668285460985,35.80760801273445,10.72594535748992,2.050730221254319
140,FTD120012,0,45,51.878205399229955,14.085039257382766,21.314788425832273,4.041320327867794,13.805505453689051,40.08547304007405,28.130611373059956,10.706999473760252,2.341543168021062
141,FTD120012,0,46,61.608940242090384,23.448886074160832,15.824957725669087,6.9746687367017355,20.69210283352613,43.36290508884998,42.60453032366279,18.49091678924944,2.4370509217305485
142,FTD120012,0,47,78.84834209495074,24.85077544904638,16.517409295579196,12.258530322945385,14.859489894186616,52.315734976493424,37.48813775601273,9.190290894284129,2.917250630707999
143,FTD120012,0,48,40.85021509580511,30.833485643730445,23.98113042135791,5.6084733560187185,11.152144402332379,33.85488692673917,26.73473628586421,6.193883875673464,2.044152977292329
144,FTD120013,0,1,75.41948159735077,20.728084857741198,18.075656708434696,16.04570259717007,18.627589592728054,36.83525569136909,17.28616845838852,6.112618597403078,2.932909420249339
145,FTD120013,0,2,76.19560237113292,30.869632666754885,12.464839826559977,8.454895462964487,12.724389727569855,30.5052178851647,17.00323634174334,9.02758938444806,3.445074811859535
146,FTD120013,0,3,28.776304256394628,23.60863062543668,6.213643977567474,7.276257752823023,32.10056726771171,42.840896504810516,11.341839548336466,5.0394915470559924,1.2438622504395205
147,FTD120013,0,4,57.974190126565965,25.82871065869984,6.873483617468995,5.654937317804213,13.990997254176218,33.51242455199141,15.835999314226582,4.931165552230181,1.706391299237393
148,FTD120013,0,5,36.19772358369927,24.705795841031588,15.097629243418691,6.723822498341468,22.240831779149826,33.85462069569517,14.114707958740578,5.633100200038267,2.3679474336499275
149,FTD120013,0,6,14.447376207659827,15.739305294020337,8.523317322476972,5.246973391249712,14.630422099589934,30.956783960637818,14.97473879408732,6.358555462752726,2.3852150230524383
150,FTD120013,0,7,36.9812822373569,25.232692819205834,10.288348077030033,8.067229140247726,16.31721024722297,31.87742227105644,15.221079776175973,8.194121509383116,3.561160013711663
151,FTD120013,0,8,24.68098289626868,20.557100287026635,9.076248309872327,5.436774159520415,26.12147264610038,27.42642441787097,18.898979179614805,5.461243042585801,2.619009748163284
152,FTD120013,0,9,29.720068317283488,23.206483244582852,10.616587249080448,9.115904930343369,18.964229316278924,32.11377048381487,17.864213274458443,5.929272380023007,2.4976582720020915
153,FTD120013,0,10,15.559140584609807,22.71678724810993,9.122963031713057,8.535514942213805,11.110718775776418,34.063133107603925,23.12946614215236,6.155684132114011,0.9538550929211818
154,FTD120013,0,11,16.022909718382884,14.84502935380753,9.836649629603395,5.37437557020563,20.11350553133789,32.83869088846138,21.194502530543794,5.601646542736662,0.8350975308713496
155,FTD120013,0,12,41.073842484115374,21.09804165738048,11.496556464958072,7.680419081467866,13.074090586076721,44.668315635567566,21.65724643611054,7.182481794216835,2.054353691603015
156,FTD120013,0,13,53.85064555754555,26.28847065724721,10.565035693902859,6.24683532470848,10.433870946066538,36.4389444313266,22.779450128205724,7.641579128430455,2.147152899201954
157,FTD120013,0,14,18.79395980444317,23.84973030557245,16.571026803632513,9.591869150477804,21.35112126336782,40.30650361553897,24.240219821364157,7.55271258129385,1.2241324717453865
158,FTD120013,0,15,13.294061323237887,20.966541531450137,10.995196755498135,7.682414759796217,17.43332082203662,35.12305504835787,15.418785682747169,8.300727928450764,2.643287017447338
159,FTD120013,0,16,88.1625569791767,27.772297856828285,10.775351094370844,8.845049019236061,17.212163264899118,34.74760527872637,23.679475396884172,7.498930155562965,3.0866429159526287
160,FTD120013,0,17,63.3195965468684,21.040590377781903,8.028040622961083,7.23460156837713,16.75530481863407,43.6697458270865,15.706834400160206,9.302625398242402,2.615447876865351
161,FTD120013,0,18,23.880983777999266,12.658778576519925,16.84224942310911,6.749511437743204,12.379048945475628,34.212760327803714,21.055495308051803,5.800614824783634,1.549017516687516
162,FTD120013,0,19,61.027149532879946,35.518642952507435,18.033941609934807,13.72511636520044,21.10418677031691,39.45770292515661,21.27189898424202,7.69166393935601,2.9331847839502845
163,FTD120013,0,20,37.14574880774365,17.946754069833023,8.240594333136189,15.414102409447683,12.863731663370109,41.385050529288684,20.172770195309862,5.565851966299517,1.3759192374546572
164,FTD120013,0,21,47.211647698397776,11.6747645654437,10.5212996205858,17.306094288953318,15.219185107456301,39.7073648121347,21.49553178632442,11.305145097688655,3.860232439086086
165,FTD120013,0,22,76.0827482559333,23.70087661685727,7.349053611114303,5.51054243460228,17.645060522673134,36.6123386213946,23.35943208994256,13.081126643118075,4.3027795274980125
166,FTD120013,0,23,71.64376409171831,30.07248394199638,10.974078803380454,9.015640274665781,18.31554342621082,31.561529457173574,21.710399900061425,12.689517677005734,5.515743150810638
167,FTD120013,0,24,78.82919033231089,18.437789989613748,11.171005977949145,4.452942666306573,13.914205257911089,35.257696072321544,24.06749212115055,8.91867647619328,5.795708674669764
168,FTD120013,0,25,19.16485836609365,25.335407672260267,10.02467103545022,4.722109603617646,10.752927756303714,31.053075756675117,18.76791579445227,8.32018461448964,1.4866406154387262
169,FTD120013,0,26,76.56753684655969,24.469018759308803,22.058411034640393,9.00993535671731,20.601032466068546,41.88439115595837,27.747667298158092,8.447110368736382,1.054096108267171
170,FTD120013,0,27,60.125299687542025,17.19574240212198,23.195306202280022,16.11873433958723,17.620657604974568,35.635607020238986,16.718046010534984,6.212062762407883,0.9500793380830329
171,FTD120013,0,28,70.14057753005947,24.739629222405444,9.319138967317397,10.562035160644932,24.233442420761587,40.139422064048084,26.349982515440132,8.542670113327219,2.80700168377656
172,FTD120013,0,29,67.70700730301822,26.748343978598648,16.38598696991851,8.482790603641156,23.160239669800546,34.312665862112254,21.625142770179487,8.103056385835757,3.6749600045093644
173,FTD120013,0,30,47.92242801923912,22.724852070809533,8.829621691651669,10.349193948349376,16.761414821291666,36.29980837161369,21.061514843263083,11.209711115673276,1.587819214020252
174,FTD120013,0,31,27.98456657851555,17.185323953013828,4.840960805189987,8.234698075101289,16.354649991437963,72.34557050111805,33.68511628167083,18.295038957702545,1.1613077491818633
175,FTD120013,0,32,57.2371927185683,17.697607881545476,21.11889052159406,10.489296925142417,22.592839910779865,75.40943977632513,46.274114389140195,24.81358870979288,3.4435780563762517
176,FTD120013,0,33,40.488883202262365,24.66439613700318,10.741182078107819,5.330692395470699,15.184693145020695,52.50498553872011,55.54966645687682,20.83701167680207,3.4670002318010846
177,FTD120013,0,34,60.2604973099636,22.777925232785964,17.875673852950314,7.866673036710685,19.11099434611847,39.30693218712403,28.360034521606075,9.730484169851357,3.2582524126826375
178,FTD120013,0,35,45.58530423448107,15.109035768558279,9.820908858180195,3.57588262545175,17.454432390774418,42.14632548786086,26.09570622509291,4.965404288695952,1.8571910325597722
179,FTD120013,0,36,25.63773579556043,20.151538489029868,8.787616068666015,2.931435927047363,13.32820493331669,41.55468589466452,36.841897631026924,13.051149688578542,2.772044029517088
180,FTD120013,0,37,24.191796246363438,22.232332396598448,14.360718839974307,8.12276593414522,13.17463097860764,62.586073056559236,35.1282351733929,20.51807072170455,3.3517264803977
181,FTD120013,0,38,55.83061134613796,23.645993689405763,15.075041421219773,8.790977677398018,13.53709471204762,62.52423401320855,38.19264765814158,20.35962195204381,3.0464488988223435
182,FTD120013,0,39,37.39593717390642,11.429778283317917,8.346741744968034,3.824910895562162,10.35402601960281,47.15751298917056,24.29430051597353,7.19094403771845,2.468276346068109
183,FTD120013,0,40,84.15558003304322,34.58272260759248,16.19376288969806,9.167467642909497,18.12340878641711,34.89648301238124,25.232885007560306,10.221712031671878,4.141378007774658
184,FTD120013,0,41,78.52119652081001,28.210350569975397,7.22390200095289,4.371867330328739,14.396499057169091,48.47802994754014,24.896154498613477,11.333427407499393,3.7798647533398495
185,FTD120013,0,42,76.55736815055299,42.09499905905018,9.740251418434884,9.05599613570783,19.177479890310565,47.58422237562423,47.47176394969339,18.310977748614317,4.723428174375609
186,FTD120013,26,43,67.36666648024622,33.52159262025515,13.225242834261113,7.166801159129383,19.705392562851564,60.13224986047307,63.44841475795108,21.292105964996892,4.511139743744291
187,FTD120013,0,44,73.37928108196971,24.189365045481697,10.436239352930617,13.074997991339925,13.087198632405386,40.90887047874307,30.682970734233965,14.14910640550503,3.180386667769723
188,FTD120013,0,45,57.34130298793656,35.95220638960815,13.19993171479171,6.786999109355108,10.557997591650516,33.41990971805679,29.567102074687586,12.452375757833757,3.6779342944137103
189,FTD120013,0,46,66.2998353061402,20.293803904961962,19.488796673385462,4.942790713675353,19.211197540521898,43.65738111752718,19.803228297355755,11.961196256859225,4.58339650028594
190,FTD120013,0,47,22.471987445582833,15.870693766849197,9.575574120210257,6.558348201708795,10.171092731910118,23.71752779593849,14.101719824600906,9.319186754835068,2.97309450348467
191,FTD120014,0,1,79.82694269438264,39.79309214909299,11.118162564079642,7.166754434134356,12.353662130738252,30.722616037111212,19.175878785837096,6.843269738831788,2.8498030608112814
192,FTD120014,0,2,90.46618232433991,36.36174161657931,8.868835171274121,9.367879069332798,18.28947984632546,41.44389595976541,21.031504856936145,8.860865736512714,3.7468715091575917
193,FTD120014,0,3,42.039353503211345,19.16025623209172,12.08882953905926,3.9127994593389146,11.465547535591691,38.26068157771999,17.947290783596145,7.195696354570979,2.1412351307299597
194,FTD120014,0,4,29.570948613801548,21.629849608629886,5.272842177834375,5.064765913229224,14.938616801450681,41.948091070267004,15.92014782874785,5.746870786042653,2.9735673196460035
195,FTD120014,0,5,45.65050059237706,22.012070958457723,16.005294362925113,12.142320023263649,13.169095956562316,36.64476301563183,19.976996345438728,9.209982163733425,4.2208307445355056
196,FTD120014,0,6,14.922807955716626,12.93661887216059,11.406712211908474,4.748567080780914,16.85182602284585,34.01599910087049,19.261614042231816,8.331801563831009,1.9634157527724179
197,FTD120014,0,7,27.88888140806928,13.974057556417018,8.744918116307794,7.242829025876995,13.223063279627125,34.33791080373952,16.655305159680267,5.527334056815616,1.6951561743295027
198,FTD120014,0,8,59.4690963081673,30.00147728030632,11.750916041877025,9.274993275894008,6.698261213517905,34.18911819111134,17.662121094517765,7.142164441205136,1.7248043250443943
199,FTD120014,0,9,58.61504257906377,24.816516922693612,11.402941090751039,10.078189522795235,11.648200240125695,40.05594729272293,20.48001724154793,5.300147268771303,1.377296377729268
200,FTD120014,0,10,26.226472192950023,14.465593694163518,7.686885945883134,6.141420034601131,17.755553312446203,34.559373223749816,18.450374434901313,7.649854094937806,2.233384780626996
201,FTD120014,0,11,52.176346858931545,18.486534952589203,11.385387323184444,6.356004611936653,14.32825433577745,42.81435526749006,20.053626177864196,6.407389594701247,3.5504164076046387
202,FTD120014,0,12,39.866937600019355,19.472248341544645,18.338829924924227,7.639075019222226,18.03944249832525,37.3964289964461,20.006961091026508,11.93234191284012,3.144085491048459
203,FTD120014,0,13,20.061500770495776,19.177421428006078,19.415004408622373,6.713208863383249,11.149651460025932,32.46506376940934,21.395555891269833,9.670137205266172,1.4883512649102026
204,FTD120014,0,14,16.05945217096162,14.046909265001327,14.323421254460852,9.478665437850054,17.967472751882976,35.85091859643079,21.13685759321222,9.964547925113354,1.3487722433704625
205,FTD120014,0,15,17.482616286813638,17.535055051448047,25.277812150907092,8.658026776207304,20.365137046077766,37.72849302359869,20.382083849452222,10.733689694927644,3.4026441187547243
206,FTD120014,0,16,25.227121119731027,16.484658479845926,17.788470111322066,5.352368200056875,7.589901652095963,40.16033217336294,23.581130226018978,11.011090233398996,4.738979475711666
207,FTD120014,0,17,39.83798223186359,15.87272485988493,12.083907702100557,11.19191449181444,11.253473904048471,45.4119571658448,21.725047388782066,9.197324337918243,2.0990607228864957
208,FTD120014,0,18,21.442895781144635,19.621285947584656,18.300561074961585,11.306831369035397,18.029634746161012,47.82966857589356,22.040901021593168,7.835270935655157,3.1915560348095062
209,FTD120014,0,19,36.41451982832313,19.19924443746996,9.90163651902376,6.873079073654848,9.914098314880782,34.03141624213336,17.792080396309146,11.92847161680978,2.7010996864198655
210,FTD120014,0,20,12.823575669236076,9.424048016496405,7.3893335419855655,7.926142631907313,13.376909920997631,32.37553148697752,20.677512382501845,5.116428667618539,0.8237049821915119
211,FTD120014,0,21,76.21200888635343,36.658554375727874,15.087493368900308,8.435576926810091,18.677397713996292,34.05299181484368,24.164741522708255,6.869645506482398,4.104983487043417
212,FTD120014,0,22,13.656449828289226,14.988502550765368,5.2765014078857995,7.996902225935222,13.296935485074245,37.2647723295732,13.844791018775428,7.177731477673037,1.4441481476733018
213,FTD120014,0,23,10.388940932185232,17.587406517787233,10.393993352819129,6.425217982879332,9.751505697060377,37.94556032785316,18.455725504344542,6.051217523338897,1.2879268261980437
214,FTD120014,0,24,23.621012861156718,14.93133719798043,8.305544373197183,5.962586327979749,19.35551965090037,28.70073922076066,19.95798700609833,7.035404151776395,1.0476902474192007
215,FTD120014,0,25,62.582886010479605,18.20557598376352,10.884984695873467,5.404782321680069,13.057766142175417,33.761735292771114,17.664017658231888,9.300418414915272,2.9339365356104508
216,FTD120014,0,26,28.728395160314452,31.760195787031815,5.8300301327684245,5.2215593798076645,17.680353820645777,37.97888597756474,19.522420886785515,11.670195072214543,5.080404264526369
217,FTD120014,0,27,18.764267379456054,18.867109190282644,9.699849579141144,6.505078682722662,10.49934495143454,33.89430061337243,24.40247331097988,9.086600972503643,4.12034500844356
218,FTD120014,0,28,8.55715091711778,17.177355099453113,6.857268487925374,4.676363355790814,14.617930601512526,30.07112725427863,20.039795794192578,7.2117359437293,1.6467967537803383
219,FTD120014,0,29,15.621143683381284,10.565269228248301,14.232224366795716,5.71261666594488,12.869346654857164,30.299245375717902,19.75745485745926,7.085769323738905,2.6577258178103915
220,FTD120014,0,30,70.38456005910025,38.58246612529505,12.627030689411363,11.380516694648135,28.380677681030026,36.54825764752586,24.919160324503608,7.71927925265422,4.817505224218037
221,FTD120014,0,31,20.52232601717219,18.969593884986516,6.582583305739691,9.860526751284995,8.30398343796177,36.6846521843852,23.62425050537899,8.65119487637683,1.5251415982842564
222,FTD120014,0,32,84.47410454710118,39.92247012914464,19.733659852524294,17.67299485494375,13.035453480033691,62.46350497439199,56.81182063376782,21.36783150821978,4.174384126170655
223,FTD120014,0,33,73.31046495562914,27.157405793023532,25.74976929598768,9.056161269953304,14.317680990560651,43.006789103939745,43.26346435188724,15.401338355411724,4.109364523467754
224,FTD120014,0,34,57.3900131940599,36.071087958351804,16.053333770853488,5.467153430255555,17.859977518917972,46.30407632973664,25.368328795124476,6.39977857169327,1.0283485598057118
225,FTD120014,0,35,30.275129387509086,13.535309058907472,11.077707804400353,6.378576544673626,14.459980501164058,42.70589612358977,17.313311414761614,9.786767125167117,1.2113749928533961
226,FTD120014,0,36,13.72801176885693,15.981731495394872,7.669027168436955,6.481378917305426,16.89757791631311,27.846125828950896,19.537114837812318,6.500298963443832,1.414581365306156
227,FTD120014,0,37,54.49144372299131,27.388287149457827,18.961729819888088,4.757737654612248,14.847563927017136,44.01785863854095,33.303805542935216,9.271117328244763,1.8909761353335695
228,FTD120014,0,38,103.49424774927103,31.645389920938438,9.987122864941572,15.928655159551017,17.478946681969603,58.634435089893174,59.43205796168381,23.086505722858114,3.604856913746443
229,FTD120014,0,39,20.37655871887239,16.27236350670091,8.209443207919604,12.144712256641942,24.451279136466926,37.88518409239254,27.67226726746204,7.9338711292769935,1.8453959398648814
230,FTD120014,0,40,63.565235826967786,28.423740527648217,16.934763958780575,8.3194374946686,16.930667197272076,51.40178282256784,22.154182033062348,6.036017794849804,1.7910474902956806
231,FTD120014,0,41,17.9902860620172,19.291733462677445,4.90476461863561,3.8648567352246346,10.871493852778984,27.90858270442701,23.25819794082388,5.569158361460497,1.0697380157060248
232,FTD120014,0,42,61.536358298221266,22.173522750402462,11.009500559618557,11.483438082060914,24.43970061287954,33.38131072581056,23.85623977528821,15.432426700965861,5.326715020769718
233,FTD120014,0,43,47.55269971968749,23.519807258789676,13.98940957890414,13.19212864241371,21.182787075881908,60.23492820809779,47.69922603970691,24.211221121844744,5.431996272087472
234,FTD120014,0,44,57.14421612852441,19.982773781145315,17.998695089210774,9.428195769969728,17.47852975959536,49.33191899982134,47.133619245542704,19.08214591823718,3.9377323472710577
235,FTD120014,0,45,31.373868939331047,13.126663855310545,10.448085847097738,5.476504407986476,14.382222317262743,36.108553135676594,22.60587281489702,5.811211107769991,2.478398030971422
236,FTD120014,0,46,72.46540826824861,39.30976007788923,17.46616089109119,9.833001338614201,24.205856849149676,39.136643837025574,24.171944297538182,9.243251244823247,3.3172268272484304
237,FTD120014,0,47,36.2352539937502,37.19176426317108,11.469549196985165,8.754197539642803,13.608545345171274,40.232948128092865,25.69839290202676,8.083785822312592,4.105817367867262
238,FTD120014,0,48,7.04554444312121,12.944107175735803,8.688002934233008,3.9420793054172756,7.894050845507045,20.240442813690283,9.193682368994505,3.848255070327674,1.2132122963934828
